Date,Open,High,Low,Close,Adj Close,Volume
2020-07-29,118.72000122070312,119.41000366210938,117.33000183105469,118.80999755859375,117.84288787841797,251200
2020-07-30,117.75,118.91000366210938,116.69999694824219,117.91000366210938,116.95021057128906,359800
2020-07-31,115.0,117.9000015258789,111.22000122070312,115.19999694824219,114.26227569580078,668100
2020-08-03,116.8499984741211,119.68000030517578,114.8499984741211,118.66000366210938,117.6941146850586,292900
2020-08-04,118.94999694824219,120.18000030517578,118.22000122070312,118.62000274658203,117.65443420410156,233100
2020-08-05,119.55999755859375,120.66999816894531,118.22000122070312,118.36000061035156,117.39656066894531,164700
2020-08-06,118.81999969482422,120.11000061035156,116.68000030517578,117.66000366210938,116.70225524902344,246500
2020-08-07,117.06999969482422,119.37000274658203,116.77999877929688,119.25,118.27931213378906,202300
2020-08-10,119.58000183105469,119.58000183105469,116.9000015258789,117.0,116.04762268066406,204700
2020-08-11,118.0199966430664,119.3499984741211,116.52999877929688,116.73999786376953,115.78973388671875,214100
2020-08-12,116.91999816894531,118.56999969482422,116.75,118.08999633789062,117.12874603271484,171800
2020-08-13,117.23999786376953,119.47000122070312,117.23999786376953,118.5199966430664,117.55524444580078,213800
2020-08-14,117.87999725341797,119.63999938964844,117.69999694824219,118.48999786376953,117.5254898071289,134600
2020-08-17,119.13999938964844,119.91999816894531,118.01000213623047,118.25,117.2874526977539,160500
2020-08-18,117.91000366210938,118.63999938964844,116.7699966430664,117.87999725341797,116.92044830322266,171500
2020-08-19,118.69999694824219,119.37000274658203,117.31999969482422,117.69000244140625,116.73200988769531,145600
2020-08-20,117.05999755859375,118.12999725341797,116.5999984741211,117.55000305175781,116.59314727783203,159400
2020-08-21,117.12000274658203,118.3499984741211,116.4000015258789,117.80000305175781,116.84111022949219,199200
2020-08-24,118.19999694824219,119.76000213623047,118.19999694824219,119.11000061035156,118.14044189453125,224000
2020-08-25,119.54000091552734,119.54000091552734,117.93000030517578,118.12999725341797,117.16841888427734,114400
2020-08-26,117.98999786376953,119.0,117.55999755859375,118.5999984741211,117.63459777832031,120000
2020-08-27,118.62999725341797,120.62000274658203,118.5,120.05000305175781,119.07279968261719,209800
2020-08-28,119.69999694824219,119.69999694824219,118.0,118.12999725341797,117.16841888427734,295200
2020-08-31,118.58000183105469,119.16000366210938,117.77999877929688,118.38999938964844,117.42631530761719,182500
2020-09-01,117.94000244140625,119.63999938964844,117.94000244140625,119.5,118.52726745605469,133900
2020-09-02,119.75,122.44000244140625,118.97000122070312,122.26000213623047,121.26480865478516,153800
2020-09-03,122.27999877929688,122.27999877929688,118.5,119.16999816894531,118.19995880126953,227200
2020-09-04,120.04000091552734,120.30000305175781,116.48999786376953,118.72000122070312,117.75361633300781,224200
2020-09-08,118.12999725341797,118.12999725341797,116.04000091552734,116.05999755859375,115.11527252197266,164600
2020-09-09,116.63999938964844,118.62999725341797,116.63999938964844,117.88999938964844,116.93037414550781,154000
2020-09-10,118.16999816894531,118.91000366210938,116.70999908447266,117.19000244140625,116.236083984375,253500
2020-09-11,117.87999725341797,118.70999908447266,117.12999725341797,118.36000061035156,117.39656066894531,124600
2020-09-14,119.37000274658203,120.05999755859375,118.47000122070312,119.08000183105469,118.11068725585938,129000
2020-09-15,119.44000244140625,119.80000305175781,118.12000274658203,118.33000183105469,117.3667984008789,125600
2020-09-16,119.58000183105469,119.58000183105469,117.56999969482422,117.7699966430664,116.81135559082031,232000
2020-09-17,116.5,117.23999786376953,115.08000183105469,115.95999908447266,115.0160903930664,354500
2020-09-18,116.58000183105469,116.75,114.2300033569336,115.04000091552734,114.10357666015625,555700
2020-09-21,113.5999984741211,114.04000091552734,111.81999969482422,113.44999694824219,112.52651977539062,251500
2020-09-22,113.97000122070312,114.66999816894531,113.55999755859375,114.33000183105469,113.39935302734375,292400
2020-09-23,114.19999694824219,114.52999877929688,111.70999908447266,112.13999938964844,111.22718048095703,172300
2020-09-24,111.9000015258789,113.16999816894531,111.16000366210938,112.26000213623047,111.34620666503906,274300
2020-09-25,111.45999908447266,112.58000183105469,111.45999908447266,112.0999984741211,111.18750762939453,254100
2020-09-28,113.16999816894531,114.22000122070312,112.04000091552734,112.36000061035156,111.44539642333984,230000
2020-09-29,112.05999755859375,113.3499984741211,111.75,112.62000274658203,111.7032699584961,230000
2020-09-30,113.2699966430664,114.05999755859375,112.5,113.19999694824219,112.27854919433594,200500
2020-10-01,113.44999694824219,114.97000122070312,113.13999938964844,113.69999694824219,112.77448272705078,166000
2020-10-02,112.30999755859375,114.18000030517578,112.30999755859375,112.8499984741211,111.93140411376953,166800
2020-10-05,113.36000061035156,114.93000030517578,113.20999908447266,114.55000305175781,113.61756896972656,151300
2020-10-06,115.01000213623047,115.9000015258789,113.91999816894531,114.55999755859375,113.62747955322266,224000
2020-10-07,115.08999633789062,116.16999816894531,114.5,114.9800033569336,114.0440673828125,173200
2020-10-08,115.80000305175781,116.79000091552734,115.5199966430664,116.5199966430664,115.57152557373047,138000
2020-10-09,118.12000274658203,118.38999938964844,116.19000244140625,116.80999755859375,115.85916137695312,148700
2020-10-12,117.05000305175781,118.83000183105469,116.69999694824219,118.04000091552734,117.07916259765625,138100
2020-10-13,117.7300033569336,118.91000366210938,117.25,117.55999755859375,116.60305786132812,159000
2020-10-14,117.5,118.02999877929688,116.04000091552734,116.44000244140625,115.4921875,98900
2020-10-15,114.72000122070312,116.58999633789062,114.22000122070312,116.33999633789062,115.39299011230469,116900
2020-10-16,116.70999908447266,117.2300033569336,116.19000244140625,116.3499984741211,115.40290832519531,97700
2020-10-19,116.63999938964844,116.63999938964844,114.58000183105469,115.1500015258789,114.21268463134766,113700
2020-10-20,116.05000305175781,117.55999755859375,115.22000122070312,116.95999908447266,116.00794982910156,192600
2020-10-21,117.2699966430664,118.76000213623047,117.2699966430664,117.73999786376953,116.78160095214844,133700
2020-10-22,117.88999938964844,118.4800033569336,116.75,118.30999755859375,117.34696197509766,164100
2020-10-23,118.75,118.97000122070312,117.4800033569336,118.3499984741211,117.38663482666016,105600
2020-10-26,117.3499984741211,117.48999786376953,115.93000030517578,117.45999908447266,116.50387573242188,114100
2020-10-27,117.16999816894531,117.19000244140625,115.61000061035156,115.6500015258789,115.0612564086914,125000
2020-10-28,114.11000061035156,114.61000061035156,112.25,112.33999633789062,111.76810455322266,170500
2020-10-29,112.30000305175781,113.0999984741211,110.33999633789062,112.94000244140625,112.36505126953125,279100
2020-10-30,116.25,116.76000213623047,113.54000091552734,114.08999633789062,113.50920104980469,377900
2020-11-02,115.16999816894531,118.29000091552734,114.66999816894531,118.19000244140625,117.58833312988281,215600
2020-11-03,118.5,121.45999908447266,118.33000183105469,119.55999755859375,118.95134735107422,242400
2020-11-04,120.0,120.0199966430664,118.0999984741211,119.05000305175781,118.44395446777344,150600
2020-11-05,120.61000061035156,123.0999984741211,120.43000030517578,122.91000366210938,122.2843017578125,185500
2020-11-06,123.58999633789062,124.61000061035156,122.47000122070312,123.5999984741211,122.97078704833984,220300
2020-11-09,127.62000274658203,128.86000061035156,122.11000061035156,123.16999816894531,122.54297637939453,336500
2020-11-10,123.38999938964844,128.8000030517578,122.94999694824219,127.61000061035156,126.96037292480469,326100
2020-11-11,127.75,127.75,124.37000274658203,125.2699966430664,124.63228607177734,194700
2020-11-12,124.23999786376953,125.20999908447266,122.58999633789062,124.2699966430664,123.63737487792969,126300
2020-11-13,124.8499984741211,126.0,124.0999984741211,125.06999969482422,124.43330383300781,126300
2020-11-16,126.27999877929688,127.0,125.56999969482422,126.86000061035156,126.21418762207031,207400
2020-11-17,126.26000213623047,128.10000610351562,125.69999694824219,127.36000061035156,126.7116470336914,191200
2020-11-18,127.43000030517578,127.86000061035156,125.97000122070312,126.37000274658203,125.72669219970703,173100
2020-11-19,126.69999694824219,127.62000274658203,126.0,127.2300033569336,126.58230590820312,213900
2020-11-20,127.51000213623047,128.36000061035156,127.19000244140625,127.80999755859375,127.15935516357422,237300
2020-11-23,128.05999755859375,129.1199951171875,126.4000015258789,126.86000061035156,126.21418762207031,182300
2020-11-24,128.16000366210938,128.47000122070312,126.87999725341797,127.87999725341797,127.22899627685547,237200
2020-11-25,128.47999572753906,128.47999572753906,125.7699966430664,126.29000091552734,125.6470947265625,136100
2020-11-27,126.55000305175781,127.30000305175781,126.08000183105469,127.23999786376953,126.59225463867188,67800
2020-11-30,126.79000091552734,126.93000030517578,125.69000244140625,126.31999969482422,125.67694091796875,204600
2020-12-01,127.1500015258789,128.5800018310547,126.41999816894531,127.81999969482422,127.16930389404297,165800
2020-12-02,127.36000061035156,128.0500030517578,125.72000122070312,126.26000213623047,125.61724853515625,133800
2020-12-03,126.06999969482422,127.11000061035156,125.1500015258789,125.87000274658203,125.22923278808594,138700
2020-12-04,125.4800033569336,127.80000305175781,125.4800033569336,127.68000030517578,127.03001403808594,144600
2020-12-07,127.98999786376953,128.99000549316406,127.63999938964844,128.6300048828125,127.9751968383789,115000
2020-12-08,128.2899932861328,130.89999389648438,127.94000244140625,129.19000244140625,128.53233337402344,162100
2020-12-09,129.1300048828125,130.17999267578125,128.66000366210938,129.52999877929688,128.87059020996094,144800
2020-12-10,129.47000122070312,131.08999633789062,129.02000427246094,130.47000122070312,129.80580139160156,247100
2020-12-11,129.58999633789062,131.10000610351562,129.58999633789062,130.4499969482422,129.78591918945312,165800
2020-12-14,131.0500030517578,131.99000549316406,128.1999969482422,128.41000366210938,127.75630950927734,205800
2020-12-15,128.55999755859375,130.64999389648438,128.30999755859375,130.25999450683594,129.5968780517578,158200
2020-12-16,130.99000549316406,131.74000549316406,130.1999969482422,131.10000610351562,130.4326171875,265400
2020-12-17,131.2899932861328,133.69000244140625,131.0,133.13999938964844,132.46221923828125,297700
2020-12-18,134.0,134.6699981689453,133.63999938964844,134.10000610351562,133.41734313964844,656300
2020-12-21,132.77999877929688,135.0,131.5,134.88999938964844,134.20330810546875,211700
2020-12-22,134.64999389648438,136.22000122070312,134.00999450683594,134.5,133.81529235839844,257300
2020-12-23,134.52000427246094,135.75,134.4499969482422,134.52999877929688,133.8451385498047,191600
2020-12-24,135.0,136.3699951171875,134.64999389648438,135.6999969482422,135.00918579101562,84200
2020-12-28,136.19000244140625,137.13999938964844,135.05999755859375,135.67999267578125,134.98928833007812,100400
2020-12-29,136.27000427246094,136.75,134.83999633789062,135.30999755859375,134.6211700439453,94400
2020-12-30,135.91000366210938,137.36000061035156,135.4600067138672,136.38999938964844,135.6956787109375,99000
2020-12-31,136.77000427246094,137.32000732421875,135.61000061035156,136.88999938964844,136.19313049316406,169800
2021-01-04,135.9199981689453,137.97000122070312,133.67999267578125,134.0,133.31784057617188,315700
2021-01-05,134.1300048828125,135.2899932861328,133.5399932861328,133.6999969482422,133.0193634033203,260500
2021-01-06,134.22000122070312,137.97000122070312,134.22000122070312,137.72000122070312,137.01890563964844,289300
2021-01-07,137.52000427246094,140.0,136.50999450683594,139.6999969482422,138.9888153076172,192400
2021-01-08,139.57000732421875,140.6199951171875,137.75999450683594,139.07000732421875,138.36204528808594,140600
2021-01-11,139.5,139.8699951171875,138.3800048828125,138.7899932861328,138.0834503173828,115300
2021-01-12,138.80999755859375,139.22999572753906,137.08999633789062,138.14999389648438,137.4467010498047,199200
2021-01-13,137.9499969482422,139.5800018310547,136.13999938964844,138.5800018310547,137.87454223632812,245000
2021-01-14,138.5,140.7100067138672,137.52000427246094,139.4499969482422,138.74009704589844,181200
2021-01-15,139.0399932861328,141.3300018310547,138.3699951171875,138.8300018310547,138.12326049804688,149300
2021-01-19,139.5800018310547,140.6199951171875,137.25,137.25999450683594,136.56124877929688,222300
2021-01-20,137.72999572753906,140.75,137.49000549316406,140.6199951171875,139.90414428710938,254100
2021-01-21,140.27000427246094,141.1300048828125,138.00999450683594,138.11000061035156,137.40692138671875,208300
2021-01-22,137.86000061035156,138.3800048828125,137.11000061035156,138.19000244140625,137.48651123046875,227800
2021-01-25,138.16000366210938,139.9199981689453,137.85000610351562,139.57000732421875,138.8594970703125,187100
2021-01-26,139.42999267578125,140.0,137.0800018310547,138.85000610351562,138.50039672851562,125900
2021-01-27,137.52999877929688,137.52999877929688,133.14999389648438,133.25,132.91448974609375,186900
2021-01-28,134.0800018310547,135.8000030517578,133.61000061035156,135.25,134.90945434570312,165800
2021-01-29,134.42999267578125,135.36000061035156,131.82000732421875,132.97000122070312,132.63519287109375,377800
2021-02-01,134.1300048828125,134.38999938964844,131.80999755859375,134.08999633789062,133.75238037109375,184700
2021-02-02,135.0500030517578,138.1199951171875,134.74000549316406,136.94000244140625,136.59519958496094,193000
2021-02-03,136.16000366210938,137.3000030517578,135.38999938964844,136.55999755859375,136.21615600585938,134700
2021-02-04,136.1199951171875,138.39999389648438,135.0,138.0,137.65252685546875,251100
2021-02-05,139.4600067138672,140.72999572753906,138.72000122070312,140.66000366210938,140.3058319091797,177500
2021-02-08,141.25,142.0,140.52999877929688,141.97999572753906,141.6225128173828,171200
2021-02-09,141.9600067138672,142.88999938964844,141.22000122070312,142.1699981689453,141.81202697753906,183000
2021-02-10,143.0,144.10000610351562,142.50999450683594,143.25,142.88931274414062,151100
2021-02-11,143.5,144.32000732421875,142.05999755859375,142.97000122070312,142.61001586914062,195800
2021-02-12,142.3800048828125,144.75999450683594,142.3800048828125,144.6300048828125,144.26583862304688,105300
2021-02-16,144.61000061035156,144.72000122070312,142.89999389648438,143.60000610351562,143.23843383789062,175300
2021-02-17,143.75,144.17999267578125,142.4499969482422,143.2100067138672,142.84942626953125,200700
2021-02-18,142.6199951171875,143.17999267578125,140.99000549316406,140.99000549316406,140.635009765625,208700
2021-02-19,138.57000732421875,138.57000732421875,131.61000061035156,132.24000549316406,131.90704345703125,492900
2021-02-22,131.25,131.3699951171875,127.5,129.10000610351562,128.7749481201172,347100
2021-02-23,127.81999969482422,128.72000122070312,126.77999877929688,128.27999877929688,127.9570083618164,490700
2021-02-24,128.25999450683594,129.0399932861328,127.80000305175781,128.75999450683594,128.435791015625,213000
2021-02-25,128.77000427246094,130.91000366210938,128.77000427246094,130.3000030517578,129.971923828125,378600
2021-02-26,131.05999755859375,131.57000732421875,129.55999755859375,130.07000732421875,129.7425079345703,386500
2021-03-01,130.77999877929688,132.0,129.8800048828125,130.60000610351562,130.2711639404297,283000
2021-03-02,130.44000244140625,130.66000366210938,129.47000122070312,130.35000610351562,130.0218048095703,367700
2021-03-03,130.3699951171875,132.17999267578125,129.5,131.0500030517578,130.72003173828125,220400
2021-03-04,130.88999938964844,131.89999389648438,130.1300048828125,130.39999389648438,130.0716552734375,493600
2021-03-05,131.13999938964844,134.13999938964844,130.41000366210938,134.08999633789062,133.75238037109375,204700
2021-03-08,134.8300018310547,138.47999572753906,134.10000610351562,137.7100067138672,137.36326599121094,230600
2021-03-09,138.67999267578125,140.6699981689453,137.67999267578125,137.69000244140625,137.34332275390625,251500
2021-03-10,138.2100067138672,140.1199951171875,137.94000244140625,139.3800048828125,139.02906799316406,150700
2021-03-11,139.19000244140625,140.4199981689453,138.74000549316406,139.3800048828125,139.02906799316406,169100
2021-03-12,140.0,141.24000549316406,139.25999450683594,140.77000427246094,140.41555786132812,219000
2021-03-15,141.77999877929688,143.02999877929688,141.00999450683594,142.1300048828125,141.7721405029297,356200
2021-03-16,141.7100067138672,142.10000610351562,139.3300018310547,140.5,140.146240234375,280700
2021-03-17,139.91000366210938,141.74000549316406,139.3800048828125,141.27999877929688,140.9242706298828,180900
2021-03-18,141.33999633789062,142.47000122070312,140.94000244140625,141.50999450683594,141.1536865234375,174100
2021-03-19,142.05999755859375,142.3300018310547,139.0399932861328,139.30999755859375,138.959228515625,615000
2021-03-22,138.97000122070312,141.86000061035156,138.25999450683594,141.58999633789062,141.23348999023438,247700
2021-03-23,140.52999877929688,142.55999755859375,140.16000366210938,140.77000427246094,140.41555786132812,330100
2021-03-24,141.16000366210938,144.3300018310547,141.16000366210938,141.83999633789062,141.4828643798828,300800
2021-03-25,141.39999389648438,143.22999572753906,140.4499969482422,142.47000122070312,142.1112823486328,265600
2021-03-26,143.0,144.82000732421875,142.19000244140625,144.82000732421875,144.4553680419922,286800
2021-03-29,144.24000549316406,145.89999389648438,143.38999938964844,144.77000427246094,144.40548706054688,272200
2021-03-30,144.3300018310547,144.41000366210938,142.60000610351562,143.0800018310547,142.71974182128906,247900
2021-03-31,143.02999877929688,143.47000122070312,141.22999572753906,141.6699981689453,141.31329345703125,408600
2021-04-01,141.99000549316406,143.97999572753906,141.3800048828125,143.8699951171875,143.50775146484375,228200
2021-04-05,144.9499969482422,144.9499969482422,143.33999633789062,144.69000244140625,144.32568359375,196100
2021-04-06,144.0399932861328,145.99000549316406,143.32000732421875,145.97000122070312,145.6024627685547,206100
2021-04-07,145.27999877929688,145.5,143.3800048828125,143.58999633789062,143.22845458984375,188000
2021-04-08,143.8000030517578,143.9600067138672,142.19000244140625,143.67999267578125,143.31822204589844,158700
2021-04-09,144.4199981689453,145.3000030517578,143.27999877929688,145.1999969482422,144.8343963623047,151400
2021-04-12,144.67999267578125,146.3800048828125,144.67999267578125,146.2100067138672,145.8418731689453,100800
2021-04-13,146.60000610351562,147.00999450683594,145.44000244140625,146.3300018310547,145.96156311035156,160800
2021-04-14,144.5,146.14999389648438,144.5,145.80999755859375,145.44287109375,185100
2021-04-15,146.9199981689453,147.89999389648438,146.02999877929688,147.1999969482422,146.82936096191406,184800
2021-04-16,149.13999938964844,149.58999633789062,147.57000732421875,148.0800018310547,147.7071533203125,322600
2021-04-19,148.22999572753906,149.7899932861328,147.75,149.7100067138672,149.3330535888672,203900
2021-04-20,147.0,150.75,146.6699981689453,150.4199981689453,150.041259765625,190300
2021-04-21,150.14999389648438,152.36000061035156,150.14999389648438,151.94000244140625,151.55743408203125,191200
2021-04-22,152.02000427246094,152.02000427246094,149.94000244140625,150.07000732421875,149.69215393066406,278400
2021-04-23,150.2899932861328,151.74000549316406,149.8300018310547,151.4499969482422,151.06866455078125,188100
2021-04-26,151.75,152.17999267578125,150.89999389648438,150.9199981689453,150.5399932861328,193600
2021-04-27,150.10000610351562,151.6699981689453,149.47999572753906,151.63999938964844,151.63999938964844,214900
2021-04-28,151.42999267578125,153.07000732421875,151.0500030517578,151.1199951171875,151.1199951171875,192000
2021-04-29,151.44000244140625,152.14999389648438,150.39999389648438,150.9199981689453,150.9199981689453,226400
2021-04-30,150.0,151.94000244140625,147.89999389648438,150.80999755859375,150.80999755859375,365700
2021-05-03,152.16000366210938,153.1999969482422,151.74000549316406,152.4600067138672,152.4600067138672,212900
2021-05-04,152.88999938964844,156.13999938964844,152.88999938964844,155.02000427246094,155.02000427246094,206800
2021-05-05,155.3000030517578,155.3000030517578,153.38999938964844,154.17999267578125,154.17999267578125,186400
2021-05-06,154.1300048828125,156.6300048828125,153.63999938964844,156.52000427246094,156.52000427246094,240600
2021-05-07,155.5500030517578,157.92999267578125,155.5500030517578,157.55999755859375,157.55999755859375,187100
2021-05-10,157.74000549316406,158.97000122070312,155.38999938964844,155.47999572753906,155.47999572753906,226300
2021-05-11,154.5500030517578,155.66000366210938,153.72000122070312,153.99000549316406,153.99000549316406,299700
2021-05-12,153.61000061035156,154.5500030517578,151.61000061035156,151.61000061035156,151.61000061035156,164100
2021-05-13,151.39999389648438,155.2899932861328,151.33999633789062,154.6199951171875,154.6199951171875,308900
2021-05-14,154.97000122070312,155.2899932861328,153.17999267578125,153.5399932861328,153.5399932861328,174000
2021-05-17,153.11000061035156,154.08999633789062,152.22999572753906,153.11000061035156,153.11000061035156,136800
2021-05-18,153.41000366210938,154.0,150.86000061035156,150.9199981689453,150.9199981689453,172500
2021-05-19,150.0,151.0399932861328,148.60000610351562,149.5399932861328,149.5399932861328,161400
2021-05-20,149.27000427246094,150.61000061035156,149.0399932861328,149.74000549316406,149.74000549316406,123200
2021-05-21,149.92999267578125,150.5800018310547,148.8800048828125,149.6300048828125,149.6300048828125,134900
2021-05-24,150.47000122070312,150.72999572753906,148.9600067138672,149.25999450683594,149.25999450683594,143000
2021-05-25,149.63999938964844,150.1199951171875,147.47000122070312,147.72999572753906,147.72999572753906,199200
2021-05-26,148.5,149.38999938964844,147.1699981689453,147.86000061035156,147.86000061035156,113600
2021-05-27,148.6199951171875,149.14999389648438,146.47999572753906,146.77000427246094,146.77000427246094,172600
2021-05-28,147.2899932861328,147.5,146.4199981689453,147.30999755859375,147.30999755859375,146900
2021-06-01,147.97999572753906,148.80999755859375,146.61000061035156,146.8800048828125,146.8800048828125,173000
2021-06-02,146.85000610351562,147.88999938964844,145.1199951171875,145.66000366210938,145.66000366210938,282800
2021-06-03,145.47999572753906,146.1199951171875,144.74000549316406,145.39999389648438,145.39999389648438,224500
2021-06-04,146.0399932861328,146.25999450683594,144.77999877929688,145.55999755859375,145.55999755859375,151900
2021-06-07,145.52999877929688,146.08999633789062,142.02999877929688,142.52000427246094,142.52000427246094,184800
2021-06-08,142.52999877929688,142.91000366210938,141.1199951171875,142.77999877929688,142.77999877929688,182900
2021-06-09,142.57000732421875,143.2100067138672,141.63999938964844,142.1699981689453,142.1699981689453,174100
2021-06-10,142.38999938964844,145.0500030517578,142.22999572753906,144.99000549316406,144.99000549316406,216100
2021-06-11,145.25999450683594,146.25,144.24000549316406,145.8300018310547,145.8300018310547,152900
2021-06-14,146.0,146.0,143.07000732421875,143.49000549316406,143.49000549316406,223600
2021-06-15,143.5399932861328,144.91000366210938,143.3699951171875,144.3300018310547,144.3300018310547,214200
2021-06-16,144.4499969482422,145.19000244140625,142.44000244140625,142.6199951171875,142.6199951171875,168400
2021-06-17,142.75999450683594,143.60000610351562,139.97000122070312,141.50999450683594,141.50999450683594,157900
2021-06-18,140.75,141.89999389648438,139.91000366210938,140.10000610351562,140.10000610351562,280400
2021-06-21,140.97999572753906,142.1999969482422,140.1699981689453,141.5800018310547,141.5800018310547,229800
2021-06-22,141.88999938964844,142.66000366210938,141.16000366210938,141.6300048828125,141.6300048828125,207400
2021-06-23,141.38999938964844,142.16000366210938,140.10000610351562,140.1699981689453,140.1699981689453,227600
2021-06-24,140.92999267578125,140.92999267578125,139.7899932861328,140.17999267578125,140.17999267578125,142300
2021-06-25,140.17999267578125,141.49000549316406,140.11000061035156,140.9199981689453,140.9199981689453,635000
2021-06-28,141.0800018310547,141.4199981689453,139.72999572753906,140.7100067138672,140.7100067138672,218600
2021-06-29,140.80999755859375,141.97000122070312,140.05999755859375,140.27999877929688,140.27999877929688,151900
2021-06-30,140.32000732421875,141.9199981689453,140.2899932861328,140.83999633789062,140.83999633789062,186500
2021-07-01,141.11000061035156,141.6999969482422,140.89999389648438,141.1199951171875,141.1199951171875,225500
2021-07-02,141.47999572753906,141.94000244140625,140.05999755859375,140.41000366210938,140.41000366210938,121900
2021-07-06,140.39999389648438,140.8699951171875,138.63999938964844,140.0500030517578,140.0500030517578,273400
2021-07-07,139.82000732421875,141.4600067138672,139.82000732421875,141.02000427246094,141.02000427246094,219900
2021-07-08,139.94000244140625,140.60000610351562,139.00999450683594,139.27000427246094,139.27000427246094,154200
2021-07-09,139.85000610351562,141.27999877929688,139.75999450683594,141.17999267578125,141.17999267578125,229800
2021-07-12,140.82000732421875,141.00999450683594,140.0500030517578,140.4199981689453,140.4199981689453,174300
2021-07-13,140.2100067138672,141.2100067138672,138.36000061035156,138.5,138.5,223600
2021-07-14,138.6699981689453,139.14999389648438,138.00999450683594,138.44000244140625,138.44000244140625,179900
2021-07-15,137.75,139.00999450683594,137.32000732421875,138.55999755859375,138.55999755859375,155500
2021-07-16,139.00999450683594,140.35000610351562,138.39999389648438,139.0399932861328,139.0399932861328,177700
2021-07-19,138.0399932861328,138.92999267578125,136.3800048828125,137.1300048828125,137.1300048828125,293000
2021-07-20,137.3000030517578,139.64999389648438,137.0,137.02000427246094,137.02000427246094,294000
2021-07-21,137.3000030517578,138.00999450683594,135.92999267578125,136.05999755859375,136.05999755859375,158000
2021-07-22,136.3300018310547,136.74000549316406,134.66000366210938,134.6699981689453,134.6699981689453,203600
2021-07-23,134.97999572753906,136.27999877929688,134.2899932861328,136.24000549316406,136.24000549316406,175200
2021-07-26,136.75999450683594,137.1300048828125,135.89999389648438,136.72000122070312,136.72000122070312,191000
2021-07-27,136.11000061035156,138.25,135.38999938964844,136.75999450683594,136.75999450683594,150500
2021-07-28,136.52000427246094,137.82000732421875,136.22999572753906,137.64999389648438,137.64999389648438,165100
2021-07-29,138.72000122070312,139.8699951171875,138.72999572753906,139.77000427246094,139.77000427246094,53466
