Date,Open,High,Low,Close,Adj Close,Volume
2020-09-16,119.58000183105469,119.58000183105469,117.56999969482422,117.7699966430664,116.46966552734375,232000
2020-09-17,116.5,117.23999786376953,115.08000183105469,115.95999908447266,114.67964935302734,354500
2020-09-18,116.58000183105469,116.75,114.2300033569336,115.04000091552734,113.76981353759766,555700
2020-09-21,113.5999984741211,114.04000091552734,111.81999969482422,113.44999694824219,112.19735717773438,251500
2020-09-22,113.97000122070312,114.66999816894531,113.55999755859375,114.33000183105469,113.06765747070312,292400
2020-09-23,114.19999694824219,114.52999877929688,111.70999908447266,112.13999938964844,110.9018325805664,172300
2020-09-24,111.9000015258789,113.16999816894531,111.16000366210938,112.26000213623047,111.0205078125,274300
2020-09-25,111.45999908447266,112.58000183105469,111.45999908447266,112.0999984741211,110.86226654052734,254100
2020-09-28,113.16999816894531,114.22000122070312,112.04000091552734,112.36000061035156,111.11940002441406,230000
2020-09-29,112.05999755859375,113.3499984741211,111.75,112.62000274658203,111.37653350830078,230000
2020-09-30,113.2699966430664,114.05999755859375,112.5,113.19999694824219,111.95011901855469,200500
2020-10-01,113.44999694824219,114.97000122070312,113.13999938964844,113.69999694824219,112.4446029663086,166000
2020-10-02,112.30999755859375,114.18000030517578,112.30999755859375,112.8499984741211,111.60398864746094,166800
2020-10-05,113.36000061035156,114.93000030517578,113.20999908447266,114.55000305175781,113.28523254394531,151300
2020-10-06,115.01000213623047,115.9000015258789,113.91999816894531,114.55999755859375,113.29511260986328,224000
2020-10-07,115.08999633789062,116.16999816894531,114.5,114.9800033569336,113.7104721069336,173200
2020-10-08,115.80000305175781,116.79000091552734,115.5199966430664,116.5199966430664,115.23346710205078,138000
2020-10-09,118.12000274658203,118.38999938964844,116.19000244140625,116.80999755859375,115.52025604248047,148700
2020-10-12,117.05000305175781,118.83000183105469,116.69999694824219,118.04000091552734,116.7366943359375,138100
2020-10-13,117.7300033569336,118.91000366210938,117.25,117.55999755859375,116.2619857788086,159000
2020-10-14,117.5,118.02999877929688,116.04000091552734,116.44000244140625,115.15435791015625,98900
2020-10-15,114.72000122070312,116.58999633789062,114.22000122070312,116.33999633789062,115.05545043945312,116900
2020-10-16,116.70999908447266,117.2300033569336,116.19000244140625,116.3499984741211,115.06535339355469,97700
2020-10-19,116.63999938964844,116.63999938964844,114.58000183105469,115.1500015258789,113.87860107421875,113700
2020-10-20,116.05000305175781,117.55999755859375,115.22000122070312,116.95999908447266,115.66860961914062,192600
2020-10-21,117.2699966430664,118.76000213623047,117.2699966430664,117.73999786376953,116.44000244140625,133700
2020-10-22,117.88999938964844,118.4800033569336,116.75,118.30999755859375,117.00370788574219,164100
2020-10-23,118.75,118.97000122070312,117.4800033569336,118.3499984741211,117.04326629638672,105600
2020-10-26,117.3499984741211,117.48999786376953,115.93000030517578,117.45999908447266,116.16309356689453,114100
2020-10-27,117.16999816894531,117.19000244140625,115.61000061035156,115.6500015258789,114.72470092773438,125000
2020-10-28,114.11000061035156,114.61000061035156,112.25,112.33999633789062,111.44116973876953,170500
2020-10-29,112.30000305175781,113.0999984741211,110.33999633789062,112.94000244140625,112.036376953125,279100
2020-10-30,116.25,116.76000213623047,113.54000091552734,114.08999633789062,113.17716979980469,377900
2020-11-02,115.16999816894531,118.29000091552734,114.66999816894531,118.19000244140625,117.24436950683594,215600
2020-11-03,118.5,121.45999908447266,118.33000183105469,119.55999755859375,118.60340881347656,242400
2020-11-04,120.0,120.0199966430664,118.0999984741211,119.05000305175781,118.09749603271484,150600
2020-11-05,120.61000061035156,123.0999984741211,120.43000030517578,122.91000366210938,121.92660522460938,185500
2020-11-06,123.58999633789062,124.61000061035156,122.47000122070312,123.5999984741211,122.611083984375,220300
2020-11-09,127.62000274658203,128.86000061035156,122.11000061035156,123.16999816894531,122.18452453613281,336500
2020-11-10,123.38999938964844,128.8000030517578,122.94999694824219,127.61000061035156,126.58900451660156,326100
2020-11-11,127.75,127.75,124.37000274658203,125.2699966430664,124.2677230834961,194700
2020-11-12,124.23999786376953,125.20999908447266,122.58999633789062,124.2699966430664,123.27571868896484,126300
2020-11-13,124.8499984741211,126.0,124.0999984741211,125.06999969482422,124.06932067871094,126300
2020-11-16,126.27999877929688,127.0,125.56999969482422,126.86000061035156,125.84500122070312,207400
2020-11-17,126.26000213623047,128.10000610351562,125.69999694824219,127.36000061035156,126.34099578857422,191200
2020-11-18,127.43000030517578,127.86000061035156,125.97000122070312,126.37000274658203,125.35892486572266,173100
2020-11-19,126.69999694824219,127.62000274658203,126.0,127.2300033569336,126.21204376220703,213900
2020-11-20,127.51000213623047,128.36000061035156,127.19000244140625,127.80999755859375,126.78740692138672,237300
2020-11-23,128.05999755859375,129.1199951171875,126.4000015258789,126.86000061035156,125.84500122070312,182300
2020-11-24,128.16000366210938,128.47000122070312,126.87999725341797,127.87999725341797,126.85684204101562,237200
2020-11-25,128.47999572753906,128.47999572753906,125.7699966430664,126.29000091552734,125.2795639038086,136100
2020-11-27,126.55000305175781,127.30000305175781,126.08000183105469,127.23999786376953,126.22196197509766,67800
2020-11-30,126.79000091552734,126.93000030517578,125.69000244140625,126.31999969482422,125.309326171875,204600
2020-12-01,127.1500015258789,128.5800018310547,126.41999816894531,127.81999969482422,126.79731750488281,165800
2020-12-02,127.36000061035156,128.0500030517578,125.72000122070312,126.26000213623047,125.24980163574219,133800
2020-12-03,126.06999969482422,127.11000061035156,125.1500015258789,125.87000274658203,124.86293029785156,138700
2020-12-04,125.4800033569336,127.80000305175781,125.4800033569336,127.68000030517578,126.65843963623047,144600
2020-12-07,127.98999786376953,128.99000549316406,127.63999938964844,128.6300048828125,127.60084533691406,115000
2020-12-08,128.2899932861328,130.89999389648438,127.94000244140625,129.19000244140625,128.15635681152344,162100
2020-12-09,129.1300048828125,130.17999267578125,128.66000366210938,129.52999877929688,128.49363708496094,144800
2020-12-10,129.47000122070312,131.08999633789062,129.02000427246094,130.47000122070312,129.42611694335938,247100
2020-12-11,129.58999633789062,131.10000610351562,129.58999633789062,130.4499969482422,129.40628051757812,165800
2020-12-14,131.0500030517578,131.99000549316406,128.1999969482422,128.41000366210938,127.38260650634766,205800
2020-12-15,128.55999755859375,130.64999389648438,128.30999755859375,130.25999450683594,129.21778869628906,158200
2020-12-16,130.99000549316406,131.74000549316406,130.1999969482422,131.10000610351562,130.05108642578125,265400
2020-12-17,131.2899932861328,133.69000244140625,131.0,133.13999938964844,132.0747528076172,297700
2020-12-18,134.0,134.6699981689453,133.63999938964844,134.10000610351562,133.02708435058594,656300
2020-12-21,132.77999877929688,135.0,131.5,134.88999938964844,133.81076049804688,211700
2020-12-22,134.64999389648438,136.22000122070312,134.00999450683594,134.5,133.4238739013672,257300
2020-12-23,134.52000427246094,135.75,134.4499969482422,134.52999877929688,133.45364379882812,191600
2020-12-24,135.0,136.3699951171875,134.64999389648438,135.6999969482422,134.6142578125,84200
2020-12-28,136.19000244140625,137.13999938964844,135.05999755859375,135.67999267578125,134.59442138671875,100400
2020-12-29,136.27000427246094,136.75,134.83999633789062,135.30999755859375,134.22738647460938,94400
2020-12-30,135.91000366210938,137.36000061035156,135.4600067138672,136.38999938964844,135.2987518310547,99000
2020-12-31,136.77000427246094,137.32000732421875,135.61000061035156,136.88999938964844,135.7947540283203,169800
2021-01-04,135.9199981689453,137.97000122070312,133.67999267578125,134.0,132.92787170410156,315700
2021-01-05,134.1300048828125,135.2899932861328,133.5399932861328,133.6999969482422,132.63027954101562,260500
2021-01-06,134.22000122070312,137.97000122070312,134.22000122070312,137.72000122070312,136.6181182861328,289300
2021-01-07,137.52000427246094,140.0,136.50999450683594,139.6999969482422,138.582275390625,192400
2021-01-08,139.57000732421875,140.6199951171875,137.75999450683594,139.07000732421875,137.9573211669922,140600
2021-01-11,139.5,139.8699951171875,138.3800048828125,138.7899932861328,137.67955017089844,115300
2021-01-12,138.80999755859375,139.22999572753906,137.08999633789062,138.14999389648438,137.044677734375,199200
2021-01-13,137.9499969482422,139.5800018310547,136.13999938964844,138.5800018310547,137.47122192382812,245000
2021-01-14,138.5,140.7100067138672,137.52000427246094,139.4499969482422,138.3342742919922,181200
2021-01-15,139.0399932861328,141.3300018310547,138.3699951171875,138.8300018310547,137.71922302246094,149300
2021-01-19,139.5800018310547,140.6199951171875,137.25,137.25999450683594,136.1617889404297,222300
2021-01-20,137.72999572753906,140.75,137.49000549316406,140.6199951171875,139.49490356445312,254100
2021-01-21,140.27000427246094,141.1300048828125,138.00999450683594,138.11000061035156,137.00498962402344,208300
2021-01-22,137.86000061035156,138.3800048828125,137.11000061035156,138.19000244140625,137.0843505859375,227800
2021-01-25,138.16000366210938,139.9199981689453,137.85000610351562,139.57000732421875,138.4533233642578,187100
2021-01-26,139.42999267578125,140.0,137.0800018310547,138.85000610351562,138.09527587890625,125900
2021-01-27,137.52999877929688,137.52999877929688,133.14999389648438,133.25,132.5257110595703,186900
2021-01-28,134.0800018310547,135.8000030517578,133.61000061035156,135.25,134.51483154296875,165800
2021-01-29,134.42999267578125,135.36000061035156,131.82000732421875,132.97000122070312,132.2472381591797,377800
2021-02-01,134.1300048828125,134.38999938964844,131.80999755859375,134.08999633789062,133.3611297607422,184700
2021-02-02,135.0500030517578,138.1199951171875,134.74000549316406,136.94000244140625,136.19564819335938,193000
2021-02-03,136.16000366210938,137.3000030517578,135.38999938964844,136.55999755859375,135.81771850585938,134700
2021-02-04,136.1199951171875,138.39999389648438,135.0,138.0,137.24989318847656,251100
2021-02-05,139.4600067138672,140.72999572753906,138.72000122070312,140.66000366210938,139.8954315185547,177500
2021-02-08,141.25,142.0,140.52999877929688,141.97999572753906,141.208251953125,171200
2021-02-09,141.9600067138672,142.88999938964844,141.22000122070312,142.1699981689453,141.397216796875,183000
2021-02-10,143.0,144.10000610351562,142.50999450683594,143.25,142.47134399414062,151100
2021-02-11,143.5,144.32000732421875,142.05999755859375,142.97000122070312,142.19287109375,195800
2021-02-12,142.3800048828125,144.75999450683594,142.3800048828125,144.6300048828125,143.84385681152344,105300
2021-02-16,144.61000061035156,144.72000122070312,142.89999389648438,143.60000610351562,142.8194580078125,175300
2021-02-17,143.75,144.17999267578125,142.4499969482422,143.2100067138672,142.43157958984375,200700
2021-02-18,142.6199951171875,143.17999267578125,140.99000549316406,140.99000549316406,140.2236328125,208700
2021-02-19,138.57000732421875,138.57000732421875,131.61000061035156,132.24000549316406,131.52120971679688,492900
2021-02-22,131.25,131.3699951171875,127.5,129.10000610351562,128.3982696533203,347100
2021-02-23,127.81999969482422,128.72000122070312,126.77999877929688,128.27999877929688,127.58271789550781,490700
2021-02-24,128.25999450683594,129.0399932861328,127.80000305175781,128.75999450683594,128.0601043701172,213000
2021-02-25,128.77000427246094,130.91000366210938,128.77000427246094,130.3000030517578,129.5917510986328,378600
2021-02-26,131.05999755859375,131.57000732421875,129.55999755859375,130.07000732421875,129.36300659179688,386500
2021-03-01,130.77999877929688,132.0,129.8800048828125,130.60000610351562,129.89012145996094,283000
2021-03-02,130.44000244140625,130.66000366210938,129.47000122070312,130.35000610351562,129.6414794921875,367700
2021-03-03,130.3699951171875,132.17999267578125,129.5,131.0500030517578,130.33766174316406,220400
2021-03-04,130.88999938964844,131.89999389648438,130.1300048828125,130.39999389648438,129.69117736816406,493600
2021-03-05,131.13999938964844,134.13999938964844,130.41000366210938,134.08999633789062,133.3611297607422,204700
2021-03-08,134.8300018310547,138.47999572753906,134.10000610351562,137.7100067138672,136.9614715576172,230600
2021-03-09,138.67999267578125,140.6699981689453,137.67999267578125,137.69000244140625,136.9415740966797,251500
2021-03-10,138.2100067138672,140.1199951171875,137.94000244140625,139.3800048828125,138.6223907470703,150700
2021-03-11,139.19000244140625,140.4199981689453,138.74000549316406,139.3800048828125,138.6223907470703,169100
2021-03-12,140.0,141.24000549316406,139.25999450683594,140.77000427246094,140.0048370361328,219000
2021-03-15,141.77999877929688,143.02999877929688,141.00999450683594,142.1300048828125,141.35743713378906,356200
2021-03-16,141.7100067138672,142.10000610351562,139.3300018310547,140.5,139.73629760742188,280700
2021-03-17,139.91000366210938,141.74000549316406,139.3800048828125,141.27999877929688,140.51205444335938,180900
2021-03-18,141.33999633789062,142.47000122070312,140.94000244140625,141.50999450683594,140.7407989501953,174100
2021-03-19,142.05999755859375,142.3300018310547,139.0399932861328,139.30999755859375,138.55274963378906,615000
2021-03-22,138.97000122070312,141.86000061035156,138.25999450683594,141.58999633789062,140.8203582763672,247700
2021-03-23,140.52999877929688,142.55999755859375,140.16000366210938,140.77000427246094,140.0048370361328,330100
2021-03-24,141.16000366210938,144.3300018310547,141.16000366210938,141.83999633789062,141.06900024414062,300800
2021-03-25,141.39999389648438,143.22999572753906,140.4499969482422,142.47000122070312,141.6956024169922,265600
2021-03-26,143.0,144.82000732421875,142.19000244140625,144.82000732421875,144.03282165527344,286800
2021-03-29,144.24000549316406,145.89999389648438,143.38999938964844,144.77000427246094,143.98309326171875,272200
2021-03-30,144.3300018310547,144.41000366210938,142.60000610351562,143.0800018310547,142.30227661132812,247900
2021-03-31,143.02999877929688,143.47000122070312,141.22999572753906,141.6699981689453,140.89993286132812,408600
2021-04-01,141.99000549316406,143.97999572753906,141.3800048828125,143.8699951171875,143.0879669189453,228200
2021-04-05,144.9499969482422,144.9499969482422,143.33999633789062,144.69000244140625,143.9035186767578,196100
2021-04-06,144.0399932861328,145.99000549316406,143.32000732421875,145.97000122070312,145.17657470703125,206100
2021-04-07,145.27999877929688,145.5,143.3800048828125,143.58999633789062,142.8094940185547,188000
2021-04-08,143.8000030517578,143.9600067138672,142.19000244140625,143.67999267578125,142.8990020751953,158700
2021-04-09,144.4199981689453,145.3000030517578,143.27999877929688,145.1999969482422,144.41073608398438,151400
2021-04-12,144.67999267578125,146.3800048828125,144.67999267578125,146.2100067138672,145.41526794433594,100800
2021-04-13,146.60000610351562,147.00999450683594,145.44000244140625,146.3300018310547,145.53460693359375,160800
2021-04-14,144.5,146.14999389648438,144.5,145.80999755859375,145.01742553710938,185100
2021-04-15,146.9199981689453,147.89999389648438,146.02999877929688,147.1999969482422,146.39987182617188,184800
2021-04-16,149.13999938964844,149.58999633789062,147.57000732421875,148.0800018310547,147.2751007080078,322600
2021-04-19,148.22999572753906,149.7899932861328,147.75,149.7100067138672,148.896240234375,203900
2021-04-20,147.0,150.75,146.6699981689453,150.4199981689453,149.60238647460938,190300
2021-04-21,150.14999389648438,152.36000061035156,150.14999389648438,151.94000244140625,151.11410522460938,191200
2021-04-22,152.02000427246094,152.02000427246094,149.94000244140625,150.07000732421875,149.25428771972656,278400
2021-04-23,150.2899932861328,151.74000549316406,149.8300018310547,151.4499969482422,150.62677001953125,188100
2021-04-26,151.75,152.17999267578125,150.89999389648438,150.9199981689453,150.0996551513672,193600
2021-04-27,150.10000610351562,151.6699981689453,149.47999572753906,151.63999938964844,151.19644165039062,214900
2021-04-28,151.42999267578125,153.07000732421875,151.0500030517578,151.1199951171875,150.67794799804688,192000
2021-04-29,151.44000244140625,152.14999389648438,150.39999389648438,150.9199981689453,150.47854614257812,226400
2021-04-30,150.0,151.94000244140625,147.89999389648438,150.80999755859375,150.36886596679688,365700
2021-05-03,152.16000366210938,153.1999969482422,151.74000549316406,152.4600067138672,152.01405334472656,212900
2021-05-04,152.88999938964844,156.13999938964844,152.88999938964844,155.02000427246094,154.56655883789062,206800
2021-05-05,155.3000030517578,155.3000030517578,153.38999938964844,154.17999267578125,153.72900390625,186400
2021-05-06,154.1300048828125,156.6300048828125,153.63999938964844,156.52000427246094,156.06216430664062,240600
2021-05-07,155.5500030517578,157.92999267578125,155.5500030517578,157.55999755859375,157.09912109375,187100
2021-05-10,157.74000549316406,158.97000122070312,155.38999938964844,155.47999572753906,155.02520751953125,226300
2021-05-11,154.5500030517578,155.66000366210938,153.72000122070312,153.99000549316406,153.53956604003906,299700
2021-05-12,153.61000061035156,154.5500030517578,151.61000061035156,151.61000061035156,151.16651916503906,164100
2021-05-13,151.39999389648438,155.2899932861328,151.33999633789062,154.6199951171875,154.16770935058594,308900
2021-05-14,154.97000122070312,155.2899932861328,153.17999267578125,153.5399932861328,153.09088134765625,174000
2021-05-17,153.11000061035156,154.08999633789062,152.22999572753906,153.11000061035156,152.66213989257812,136800
2021-05-18,153.41000366210938,154.0,150.86000061035156,150.9199981689453,150.47854614257812,172500
2021-05-19,150.0,151.0399932861328,148.60000610351562,149.5399932861328,149.10256958007812,161400
2021-05-20,149.27000427246094,150.61000061035156,149.0399932861328,149.74000549316406,149.302001953125,123200
2021-05-21,149.92999267578125,150.5800018310547,148.8800048828125,149.6300048828125,149.19232177734375,134900
2021-05-24,150.47000122070312,150.72999572753906,148.9600067138672,149.25999450683594,148.82339477539062,143000
2021-05-25,149.63999938964844,150.1199951171875,147.47000122070312,147.72999572753906,147.29786682128906,199200
2021-05-26,148.5,149.38999938964844,147.1699981689453,147.86000061035156,147.427490234375,113600
2021-05-27,148.6199951171875,149.14999389648438,146.47999572753906,146.77000427246094,146.34068298339844,172600
2021-05-28,147.2899932861328,147.5,146.4199981689453,147.30999755859375,146.8791046142578,146900
2021-06-01,147.97999572753906,148.80999755859375,146.61000061035156,146.8800048828125,146.4503631591797,173000
2021-06-02,146.85000610351562,147.88999938964844,145.1199951171875,145.66000366210938,145.2339324951172,282800
2021-06-03,145.47999572753906,146.1199951171875,144.74000549316406,145.39999389648438,144.9746856689453,224500
2021-06-04,146.0399932861328,146.25999450683594,144.77999877929688,145.55999755859375,145.13421630859375,151900
2021-06-07,145.52999877929688,146.08999633789062,142.02999877929688,142.52000427246094,142.10311889648438,184800
2021-06-08,142.52999877929688,142.91000366210938,141.1199951171875,142.77999877929688,142.3623504638672,182900
2021-06-09,142.57000732421875,143.2100067138672,141.63999938964844,142.1699981689453,141.75413513183594,174100
2021-06-10,142.38999938964844,145.0500030517578,142.22999572753906,144.99000549316406,144.56590270996094,216100
2021-06-11,145.25999450683594,146.25,144.24000549316406,145.8300018310547,145.4034423828125,152900
2021-06-14,146.0,146.0,143.07000732421875,143.49000549316406,143.07028198242188,223600
2021-06-15,143.5399932861328,144.91000366210938,143.3699951171875,144.3300018310547,143.90782165527344,214200
2021-06-16,144.4499969482422,145.19000244140625,142.44000244140625,142.6199951171875,142.20281982421875,168400
2021-06-17,142.75999450683594,143.60000610351562,139.97000122070312,141.50999450683594,141.0960693359375,157900
2021-06-18,140.75,141.89999389648438,139.91000366210938,140.10000610351562,139.69020080566406,280400
2021-06-21,140.97999572753906,142.1999969482422,140.1699981689453,141.5800018310547,141.16586303710938,229800
2021-06-22,141.88999938964844,142.66000366210938,141.16000366210938,141.6300048828125,141.21572875976562,207400
2021-06-23,141.38999938964844,142.16000366210938,140.10000610351562,140.1699981689453,139.75999450683594,227600
2021-06-24,140.92999267578125,140.92999267578125,139.7899932861328,140.17999267578125,139.76995849609375,142300
2021-06-25,140.17999267578125,141.49000549316406,140.11000061035156,140.9199981689453,140.50779724121094,635000
2021-06-28,141.0800018310547,141.4199981689453,139.72999572753906,140.7100067138672,140.2984161376953,218600
2021-06-29,140.80999755859375,141.97000122070312,140.05999755859375,140.27999877929688,139.86965942382812,151900
2021-06-30,140.32000732421875,141.9199981689453,140.2899932861328,140.83999633789062,140.4280242919922,186500
2021-07-01,141.11000061035156,141.6999969482422,140.89999389648438,141.1199951171875,140.7071990966797,225500
2021-07-02,141.47999572753906,141.94000244140625,140.05999755859375,140.41000366210938,139.99929809570312,121900
2021-07-06,140.39999389648438,140.8699951171875,138.63999938964844,140.0500030517578,139.64035034179688,273400
2021-07-07,139.82000732421875,141.4600067138672,139.82000732421875,141.02000427246094,140.60751342773438,219900
2021-07-08,139.94000244140625,140.60000610351562,139.00999450683594,139.27000427246094,138.8626251220703,154200
2021-07-09,139.85000610351562,141.27999877929688,139.75999450683594,141.17999267578125,140.76702880859375,229800
2021-07-12,140.82000732421875,141.00999450683594,140.0500030517578,140.4199981689453,140.00926208496094,174300
2021-07-13,140.2100067138672,141.2100067138672,138.36000061035156,138.5,138.09487915039062,223600
2021-07-14,138.6699981689453,139.14999389648438,138.00999450683594,138.44000244140625,138.03504943847656,179900
2021-07-15,137.75,139.00999450683594,137.32000732421875,138.55999755859375,138.15469360351562,155500
2021-07-16,139.00999450683594,140.35000610351562,138.39999389648438,139.0399932861328,138.63328552246094,177700
2021-07-19,138.0399932861328,138.92999267578125,136.3800048828125,137.1300048828125,136.7288818359375,293000
2021-07-20,137.3000030517578,139.64999389648438,137.0,137.02000427246094,136.61920166015625,294000
2021-07-21,137.3000030517578,138.00999450683594,135.92999267578125,136.05999755859375,135.66200256347656,158000
2021-07-22,136.3300018310547,136.74000549316406,134.66000366210938,134.6699981689453,134.2760772705078,203600
2021-07-23,134.97999572753906,136.27999877929688,134.2899932861328,136.24000549316406,135.84149169921875,175200
2021-07-26,136.75999450683594,137.1300048828125,135.89999389648438,136.72000122070312,136.32008361816406,191000
2021-07-27,136.11000061035156,138.25,135.38999938964844,136.75999450683594,136.35995483398438,150500
2021-07-28,136.52000427246094,137.82000732421875,136.22999572753906,137.64999389648438,137.2473602294922,165100
2021-07-29,138.72000122070312,140.00999450683594,138.72000122070312,139.0500030517578,138.6432647705078,316000
2021-07-30,136.0,139.50999450683594,128.17999267578125,128.9199981689453,128.5428924560547,842400
2021-08-02,128.44000244140625,130.5800018310547,127.69000244140625,129.91000366210938,129.52999877929688,453600
2021-08-03,129.5500030517578,129.74000549316406,127.66999816894531,128.6300048828125,128.6300048828125,418300
2021-08-04,128.75999450683594,129.39999389648438,126.31999969482422,126.7699966430664,126.7699966430664,294500
2021-08-05,127.44000244140625,128.1999969482422,126.63999938964844,127.5,127.5,158000
2021-08-06,128.0800018310547,129.4600067138672,127.91999816894531,128.42999267578125,128.42999267578125,184600
2021-08-09,128.6999969482422,130.74000549316406,128.6199951171875,130.0800018310547,130.0800018310547,297200
2021-08-10,129.30999755859375,131.2100067138672,128.9600067138672,129.1999969482422,129.1999969482422,200400
2021-08-11,130.19000244140625,132.32000732421875,129.1699981689453,131.6300048828125,131.6300048828125,305900
2021-08-12,132.5399932861328,133.60000610351562,131.91000366210938,132.67999267578125,132.67999267578125,247800
2021-08-13,132.88999938964844,133.88999938964844,132.50999450683594,133.0500030517578,133.0500030517578,174300
2021-08-16,132.58999633789062,133.1699981689453,131.66000366210938,132.8800048828125,132.8800048828125,106300
2021-08-17,132.3300018310547,133.13999938964844,131.60000610351562,133.00999450683594,133.00999450683594,213100
2021-08-18,132.27999877929688,133.10000610351562,132.0399932861328,132.0500030517578,132.0500030517578,110800
2021-08-19,131.44000244140625,132.9499969482422,131.39999389648438,132.41000366210938,132.41000366210938,94000
2021-08-20,132.10000610351562,133.91000366210938,131.92999267578125,133.52000427246094,133.52000427246094,118600
2021-08-23,134.1699981689453,134.5500030517578,132.49000549316406,132.9600067138672,132.9600067138672,111200
2021-08-24,132.9499969482422,133.72000122070312,132.22000122070312,132.9600067138672,132.9600067138672,85700
2021-08-25,133.0800018310547,134.5,132.94000244140625,134.1300048828125,134.1300048828125,116000
2021-08-26,133.60000610351562,133.77999877929688,132.47999572753906,132.66000366210938,132.66000366210938,133600
2021-08-27,133.35000610351562,134.9499969482422,133.3000030517578,134.52999877929688,134.52999877929688,180600
2021-08-30,135.16000366210938,136.22999572753906,135.0,135.22999572753906,135.22999572753906,122300
2021-08-31,135.55999755859375,135.9499969482422,134.22000122070312,134.8000030517578,134.8000030517578,154100
2021-09-01,135.11000061035156,135.5,134.13999938964844,135.00999450683594,135.00999450683594,135800
2021-09-02,135.5,136.22000122070312,134.22999572753906,135.13999938964844,135.13999938964844,165500
2021-09-03,135.27999877929688,136.19000244140625,134.92999267578125,135.14999389648438,135.14999389648438,112700
2021-09-07,134.72000122070312,134.72000122070312,130.92999267578125,131.0800018310547,131.0800018310547,131600
2021-09-08,130.33999633789062,131.35000610351562,130.33999633789062,130.8800048828125,130.8800048828125,325200
2021-09-09,130.41000366210938,131.1199951171875,128.3699951171875,128.6300048828125,128.6300048828125,227700
2021-09-10,128.27000427246094,129.3000030517578,125.81999969482422,125.83999633789062,125.83999633789062,341000
2021-09-13,125.45999908447266,126.12000274658203,123.76000213623047,124.76000213623047,124.76000213623047,286000
2021-09-14,125.12999725341797,126.41999816894531,124.22000122070312,124.58000183105469,124.58000183105469,184100
2021-09-15,123.9000015258789,125.43000030517578,123.30000305175781,124.62999725341797,124.62999725341797,206600
